# energy grid [eV]     epsi_x  epsi_y  epsi_z
#
    0.000000000    0.000000000    0.000000000    0.000000000
    0.060120240    0.045221473    0.045221381    0.045221427
    0.120240481    0.090676907    0.090676722    0.090676815
    0.180360721    0.136603513    0.136603233    0.136603374
    0.240480962    0.183245091    0.183244712    0.183244903
    0.300601202    0.230855546    0.230855062    0.230855307
    0.360721443    0.279702689    0.279702095    0.279702396
    0.420841683    0.330072429    0.330071716    0.330072079
    0.480961924    0.382273493    0.382272652    0.382273081
    0.541082164    0.436642827    0.436641845    0.436642349
    0.601202405    0.493551876    0.493550739    0.493551325
    0.661322645    0.553413976    0.553412667    0.553413346
    0.721442886    0.616693165    0.616691664    0.616692447
    0.781563126    0.683914788    0.683913070    0.683913971
    0.841683367    0.755678394    0.755676431    0.755677467
    0.901803607    0.832673573    0.832671329    0.832672521
    0.961923848    0.915699561    0.915696997    0.915698368
    1.022044088    1.005689764    1.005686828    1.005688408
    1.082164329    1.103742683    1.103739315    1.103741138
    1.142284569    1.211161317    1.211157444    1.211159553
    1.202404810    1.329503858    1.329499392    1.329501840
    1.262525050    1.460649617    1.460644446    1.460647297
    1.322645291    1.606885722    1.606879711    1.606883044
    1.382765531    1.771022567    1.771015545    1.771019460
    1.442885772    1.956549568    1.956541321    1.956545943
    1.503006012    2.167848392    2.167838646    2.167844135
    1.563126253    2.410489532    2.410477934    2.410484496
    1.623246493    2.691652135    2.691638225    2.691646130
    1.683366733    3.020730043    3.020713211    3.020722814
    1.743486974    3.410225978    3.410205404    3.410217184
    1.803607214    3.877103850    3.877078416    3.877093024
    1.863727455    4.444892055    4.444860198    4.444878546
    1.923847695    5.147061679    5.147021168    5.147044555
    1.983967936    6.032658016    6.032605584    6.032635911
    2.044088176    7.176105143    7.176035853    7.176075992
    2.104208417    8.695170855    8.695076976    8.695131424
    2.164328657   10.785926571   10.785795453   10.785871570
    2.224448898   13.795686377   13.795496205   13.795606699
    2.284569138   18.386824621   18.386535400   18.386703629
    2.344689379   25.921942809   25.921477364   25.921748676
    2.404809619   39.226237137   39.225459768   39.225915649
    2.464929860   61.768648803   61.767406741   61.768136173
    2.525050100   87.537382532   87.534682455   87.536156838
    2.585170341  120.424814769  120.419572607  120.422371974
    2.645290581  176.168276804  176.164131161  176.166732434
    2.705410822  191.405216622  191.408804642  191.407263169
    2.765531062  132.050380673  132.055754626  132.052729214
    2.825651303   81.724077920   81.727083001   81.725341239
    2.885771543   59.864875188   59.866430352   59.865486806
    2.945891784   57.339771382   57.340683822   57.340046818
    3.006012024   70.332462328   70.333162465   70.332548452
    3.066132265   78.875290232   78.875766860   78.875268935
    3.126252505   60.828237563   60.828315933   60.828152116
    3.186372745   46.326029068   46.326181254   46.326052078
    3.246492986   43.178522574   43.178952323   43.178722233
    3.306613226   42.561871540   42.562334571   42.562088227
    3.366733467   45.065047418   45.065685947   45.065337266
    3.426853707   59.094250547   59.095525316   59.094838064
    3.486973948   88.475763478   88.477693637   88.476644350
    3.547094188  121.819929742  121.821782551  121.820738150
    3.607214429  142.376884033  142.377122810  142.377172783
    3.667334669  122.024973708  122.023188556  122.024307066
    3.727454910   77.425008734   77.423691885   77.424312692
    3.787575150   46.911026919   46.910424815   46.910667979
    3.847695391   31.497785468   31.497589130   31.497625570
    3.907815631   23.475177063   23.475144004   23.475101014
    3.967935872   19.000826907   19.000796807   19.000769125
    4.028056112   17.009438412   17.009388076   17.009379866
    4.088176353   17.123543163   17.123467323   17.123473212
    4.148296593   19.755828633   19.755705944   19.755731604
    4.208416834   26.542156133   26.541943528   26.542003951
    4.268537074   39.403515845   39.403217029   39.403266379
    4.328657315   51.592159616   51.591788349   51.591710325
    4.388777555   61.721386847   61.720792299   61.720726859
    4.448897796   72.059752963   72.059797396   72.059500519
    4.509018036   55.599737776   55.600029780   55.599817293
    4.569138277   33.426453956   33.426520962   33.426472685
    4.629258517   21.038854991   21.038935576   21.038867413
    4.689378758   14.250974840   14.251114121   14.251003931
    4.749498998   10.200868108   10.200953391   10.200881840
    4.809619238    7.763012103    7.763057796    7.763015504
    4.869739479    6.218408110    6.218435001    6.218407551
    4.929859719    5.190033523    5.190051726    5.190031893
    4.989979960    4.489540777    4.489555450    4.489539367
    5.050100200    4.025726841    4.025741638    4.025726344
    5.110220441    3.766869131    3.766887584    3.766870583
    5.170340681    3.691445135    3.691463823    3.691454679
    5.230460922    3.693798127    3.693804672    3.693822402
    5.290581162    3.906487394    3.906494041    3.906520772
    5.350701403    4.648051383    4.648091599    4.648091432
    5.410821643    6.286522414    6.286633331    6.286563763
    5.470941884    8.111503323    8.111568612    8.111510546
    5.531062124    7.151863892    7.151765110    7.151805007
    5.591182365    5.277477357    5.277406340    5.277435076
    5.651302605    4.491293996    4.491223516    4.491253236
    5.711422846    4.703936693    4.703851692    4.703888127
    5.771543086    4.987261083    4.987329019    4.987265595
    5.831663327    4.572455781    4.572661412    4.572510387
    5.891783567    4.560655715    4.560759527    4.560679043
    5.951903808    5.276337362    5.276338401    5.276329350
    6.012024048    5.658436734    5.658411423    5.658429932
    6.072144289    5.097102760    5.097132075    5.097102646
    6.132264529    4.385978228    4.386070921    4.385977536
    6.192384770    4.564660795    4.564867115    4.564666609
    6.252505010    5.919540658    5.919887158    5.919559524
    6.312625251    6.937169770    6.937229006    6.937217599
    6.372745491    5.652135612    5.651883342    5.652179415
    6.432865731    4.538960383    4.538815066    4.538989568
    6.492985972    3.700923836    3.700831250    3.700935635
    6.553106212    2.799240623    2.799185663    2.799246010
    6.613226453    2.349198353    2.349172834    2.349203182
    6.673346693    2.328536253    2.328529447    2.328541966
    6.733466934    2.738139703    2.738147351    2.738147432
    6.793587174    3.471024596    3.471033522    3.471030485
    6.853707415    3.760462418    3.760482460    3.760464661
    6.913827655    3.369005776    3.369048138    3.369005184
    6.973947896    3.412317969    3.412380963    3.412312124
    7.034068136    4.245114379    4.245227387    4.245102167
    7.094188377    5.235822882    5.235917788    5.235797543
    7.154308617    5.103862014    5.103712099    5.103821327
    7.214428858    4.556248819    4.556007491    4.556230740
    7.274549098    4.564560944    4.564333949    4.564575691
    7.334669339    4.320852829    4.320581627    4.320850525
    7.394789579    4.526622910    4.526128016    4.526561437
    7.454909820    5.662356082    5.661905959    5.662305092
    7.515030060    5.601179576    5.601696978    5.601323487
    7.575150301    4.230305486    4.230860273    4.230444929
    7.635270541    3.801841664    3.802127060    3.801922996
    7.695390782    4.022017073    4.022184706    4.022069323
    7.755511022    3.313035691    3.313108080    3.313042872
    7.815631263    2.196084439    2.196119643    2.196083732
    7.875751503    1.520909345    1.520933156    1.520910472
    7.935871743    1.164964685    1.164981689    1.164966165
    7.995991984    0.969200228    0.969212517    0.969201195
    8.056112224    0.859806465    0.859815410    0.859806589
    8.116232465    0.806077928    0.806084394    0.806076972
    8.176352705    0.798715249    0.798719672    0.798712792
    8.236472946    0.844248768    0.844251270    0.844244026
    8.296593186    0.970746924    0.970748161    0.970738685
    8.356713427    1.227595858    1.227607156    1.227586380
    8.416833667    1.609686511    1.609724443    1.609682027
    8.476953908    2.136511913    2.136515003    2.136500427
    8.537074148    2.841232255    2.841174548    2.841214335
    8.597194389    2.707935882    2.707895896    2.707935543
    8.657314629    2.059079117    2.059057103    2.059076147
    8.717434870    1.762110172    1.762104466    1.762093781
    8.777555110    1.918451663    1.918463329    1.918415251
    8.837675351    2.470189429    2.470217447    2.470113290
    8.897795591    3.285427358    3.285459854    3.285304425
    8.957915832    3.173879829    3.173805034    3.173769938
    9.018036072    2.139284849    2.139187675    2.139221918
    9.078156313    1.503134760    1.503065355    1.503104455
    9.138276553    1.260851796    1.260801606    1.260833806
    9.198396794    1.102694159    1.102669218    1.102675731
    9.258517034    1.000041206    1.000016671    1.000032925
    9.318637275    1.068919361    1.068872190    1.068920612
    9.378757515    1.361771899    1.361694956    1.361782592
    9.438877756    1.600821132    1.600783698    1.600831217
    9.498997996    1.405252265    1.405254736    1.405254072
    9.559118236    1.332256905    1.332245089    1.332255446
    9.619238477    1.551886257    1.551877358    1.551883806
    9.679358717    1.756519515    1.756537008    1.756516803
    9.739478958    1.811879013    1.811875308    1.811874411
    9.799599198    1.552399168    1.552405498    1.552397205
    9.859719439    1.297308168    1.297371842    1.297317450
    9.919839679    1.186421803    1.186480479    1.186428652
    9.979959920    1.114788605    1.114777937    1.114780893
   10.040080160    1.040406049    1.040379395    1.040395682
   10.100200401    1.105805083    1.105791344    1.105798055
   10.160320641    1.187172295    1.187159340    1.187165279
   10.220440882    1.113610969    1.113593112    1.113598728
   10.280561122    0.870894025    0.870871383    0.870879336
   10.340681363    0.678100044    0.678090187    0.678093303
   10.400801603    0.620853395    0.620850794    0.620853840
   10.460921844    0.661129674    0.661124990    0.661133476
   10.521042084    0.660425035    0.660413565    0.660424758
   10.581162325    0.649140205    0.649134517    0.649138178
   10.641282565    0.724396632    0.724391057    0.724393796
   10.701402806    0.752218926    0.752201072    0.752214630
   10.761523046    0.775505987    0.775486802    0.775499226
   10.821643287    0.811405919    0.811401084    0.811402997
   10.881763527    0.872223760    0.872227413    0.872223129
   10.941883768    0.872721481    0.872722729    0.872718847
   11.002004008    0.886068030    0.886062985    0.886060333
   11.062124248    0.904738918    0.904713253    0.904729351
   11.122244489    0.708900610    0.708870016    0.708892427
   11.182364729    0.506297465    0.506280349    0.506293140
   11.242484970    0.409931553    0.409922227    0.409929930
   11.302605210    0.391448612    0.391442964    0.391449052
   11.362725451    0.444777055    0.444773106    0.444780118
   11.422845691    0.580252992    0.580248872    0.580259593
   11.482965932    0.676261556    0.676259294    0.676268632
   11.543086172    0.596528322    0.596534638    0.596532855
   11.603206413    0.484371730    0.484376710    0.484373904
   11.663326653    0.459537163    0.459538146    0.459537240
   11.723446894    0.544472792    0.544471377    0.544471089
   11.783567134    0.652237282    0.652239187    0.652233095
   11.843687375    0.575835268    0.575839111    0.575829263
   11.903807615    0.475142721    0.475146065    0.475139032
   11.963927856    0.448888987    0.448891743    0.448886210
   12.024048096    0.507255724    0.507257593    0.507251878
   12.084168337    0.663867543    0.663867254    0.663861234
   12.144288577    0.924142354    0.924139083    0.924132842
   12.204408818    1.210994124    1.210986257    1.210983895
   12.264529058    1.408136495    1.408125061    1.408122328
   12.324649299    1.244761556    1.244743298    1.244749586
   12.384769539    0.947636730    0.947626609    0.947632726
   12.444889780    0.799145089    0.799136873    0.799143305
   12.505010020    0.620421868    0.620416027    0.620419487
   12.565130261    0.446709829    0.446708377    0.446708673
   12.625250501    0.342625531    0.342624535    0.342624644
   12.685370741    0.298159939    0.298158733    0.298159136
   12.745490982    0.296691441    0.296690080    0.296690823
   12.805611222    0.328432782    0.328429384    0.328431119
   12.865731463    0.359068288    0.359059906    0.359064175
   12.925851703    0.391003288    0.390992834    0.390998834
   12.985971944    0.457115009    0.457101301    0.457108878
   13.046092184    0.502563318    0.502552192    0.502554658
   13.106212425    0.603823468    0.603820475    0.603810870
   13.166332665    0.816672088    0.816703437    0.816662682
   13.226452906    1.049103627    1.049155093    1.049100457
   13.286573146    1.154833900    1.154833165    1.154825972
   13.346693387    0.932257860    0.932217777    0.932250388
   13.406813627    0.744001544    0.743976711    0.744006094
   13.466933868    0.560355094    0.560341696    0.560360037
   13.527054108    0.391111165    0.391101695    0.391112205
   13.587174349    0.296474929    0.296469057    0.296475031
   13.647294589    0.257787553    0.257783581    0.257787391
   13.707414830    0.255831042    0.255827906    0.255830813
   13.767535070    0.279690115    0.279685966    0.279690095
   13.827655311    0.338232932    0.338225347    0.338233697
   13.887775551    0.408652807    0.408645054    0.408653507
   13.947895792    0.460858623    0.460858893    0.460857977
   14.008016032    0.500819441    0.500825884    0.500816926
   14.068136273    0.452859132    0.452862505    0.452855487
   14.128256513    0.404666986    0.404664257    0.404660052
   14.188376754    0.416228039    0.416226901    0.416221028
   14.248496994    0.457710909    0.457708686    0.457703148
   14.308617234    0.557285281    0.557277820    0.557274508
   14.368737475    0.591905787    0.591893484    0.591894556
   14.428857715    0.472186838    0.472173754    0.472179034
   14.488977956    0.396510259    0.396495309    0.396504068
   14.549098196    0.406348063    0.406326536    0.406340916
   14.609218437    0.464116404    0.464100496    0.464107391
   14.669338677    0.422676616    0.422674939    0.422668667
   14.729458918    0.369831015    0.369829455    0.369826780
   14.789579158    0.353017307    0.353023993    0.353019083
   14.849699399    0.307989996    0.307998267    0.307991780
   14.909819639    0.241118323    0.241123070    0.241118177
   14.969939880    0.201606658    0.201608091    0.201605079
   15.030060120    0.194743358    0.194742961    0.194740725
   15.090180361    0.200460907    0.200459091    0.200457198
   15.150300601    0.201659733    0.201655333    0.201654275
   15.210420842    0.228367765    0.228359087    0.228359061
   15.270541082    0.273268949    0.273258081    0.273257320
   15.330661323    0.319682645    0.319670334    0.319668030
   15.390781563    0.391941991    0.391931808    0.391925949
   15.450901804    0.492290314    0.492288563    0.492273835
   15.511022044    0.441687411    0.441695251    0.441675655
   15.571142285    0.320971592    0.320979897    0.320965893
   15.631262525    0.276444041    0.276452252    0.276442422
   15.691382766    0.279159256    0.279167259    0.279159897
   15.751503006    0.277089228    0.277094681    0.277090753
   15.811623246    0.222890613    0.222894536    0.222892532
   15.871743487    0.179021850    0.179027091    0.179024918
   15.931863727    0.163217864    0.163224608    0.163222084
   15.991983968    0.139560304    0.139562865    0.139562300
   16.052104208    0.114359521    0.114359590    0.114359823
   16.112224449    0.103753673    0.103751743    0.103752965
   16.172344689    0.100498558    0.100494458    0.100497027
   16.232464930    0.102618432    0.102616218    0.102617188
   16.292585170    0.095301917    0.095304754    0.095301833
   16.352705411    0.085874522    0.085875842    0.085873533
   16.412825651    0.088280263    0.088278429    0.088277487
   16.472945892    0.106780774    0.106775381    0.106775253
   16.533066132    0.130073280    0.130068722    0.130065835
   16.593186373    0.113992482    0.113993382    0.113987401
   16.653306613    0.085502255    0.085503047    0.085499393
   16.713426854    0.070738201    0.070738058    0.070736398
   16.773547094    0.065916122    0.065915298    0.065914801
   16.833667335    0.067975323    0.067973676    0.067974161
   16.893787575    0.077848038    0.077845020    0.077846785
   16.953907816    0.097406004    0.097400734    0.097404439
   17.014028056    0.120500307    0.120491808    0.120497874
   17.074148297    0.134118835    0.134109181    0.134115427
   17.134268537    0.139988504    0.139980974    0.139985673
   17.194388778    0.146881652    0.146878341    0.146879485
   17.254509018    0.150140895    0.150140560    0.150138758
   17.314629259    0.141840029    0.141840115    0.141837546
   17.374749499    0.135339149    0.135340850    0.135338110
   17.434869739    0.130198683    0.130201515    0.130199207
   17.494989980    0.123320493    0.123320732    0.123321268
   17.555110220    0.116025135    0.116024200    0.116027650
   17.615230461    0.129292907    0.129292690    0.129297794
   17.675350701    0.158410593    0.158411545    0.158415302
   17.735470942    0.156451865    0.156452009    0.156455292
   17.795591182    0.131398697    0.131397482    0.131402069
   17.855711423    0.101726156    0.101724538    0.101728641
   17.915831663    0.077620739    0.077619612    0.077621954
   17.975951904    0.066506941    0.066506021    0.066507353
   18.036072144    0.063110507    0.063109643    0.063110580
   18.096192385    0.064196091    0.064195810    0.064196525
   18.156312625    0.069718178    0.069718149    0.069719015
   18.216432866    0.079488442    0.079487649    0.079488641
   18.276553106    0.098743967    0.098742222    0.098743043
   18.336673347    0.124032436    0.124031475    0.124031080
   18.396793587    0.152514787    0.152513399    0.152513879
   18.456913828    0.194227394    0.194221000    0.194225431
   18.517034068    0.250855968    0.250846238    0.250852762
   18.577154309    0.241722371    0.241716632    0.241719481
   18.637274549    0.201122432    0.201119542    0.201121358
   18.697394790    0.152690814    0.152688679    0.152691213
   18.757515030    0.112917378    0.112916196    0.112918949
   18.817635271    0.089202956    0.089202383    0.089204871
   18.877755511    0.071527437    0.071527200    0.071529425
   18.937875752    0.063555929    0.063556360    0.063558575
   18.997995992    0.064907031    0.064908110    0.064910639
   19.058116232    0.075174276    0.075176099    0.075179222
   19.118236473    0.089627997    0.089630315    0.089633222
   19.178356713    0.102101697    0.102103431    0.102106751
   19.238476954    0.097027582    0.097027500    0.097032076
   19.298597194    0.092957906    0.092957501    0.092960944
   19.358717435    0.092993741    0.092993449    0.092995179
   19.418837675    0.094197190    0.094197977    0.094197455
   19.478957916    0.095358115    0.095356627    0.095357988
   19.539078156    0.083379623    0.083372219    0.083379696
   19.599198397    0.068310096    0.068303729    0.068310727
